ENTRY            A1473   20251002                             A128A1473000    1 
SUBENT        A1473001   20251002                             A128A1473001    1 
BIB                 10         19                                 A1473001    2 
TITLE      Mechanism of the 7Li(p,alpha)4He reaction              A1473001    3 
AUTHOR     (N.Sarma,K.S.Jayaraman,C.K.Kumar)                      A1473001    4 
INSTITUTE  (3INDTRM)                                              A1473001    5 
REFERENCE  (J,NP,44,205,1963)                                     A1473001    6 
FACILITY   (VDG,3INDTRM)                                          A1473001    7 
SAMPLE     The targets were made by evaporating natural lithium   A1473001    8 
           metal onto self-supporting carbon films of thickness   A1473001    9 
           about 20 ug/cm2. The target thickness was              A1473001   10 
           estimated by measuring the Coulomb scattering of       A1473001   11 
           protons in a forward direction at 2.0 MeV; the         A1473001   12 
           thickness used in the experiments was about 40 ug/cm2  A1473001   13 
METHOD     (PHD,BCINT)                                            A1473001   14 
DETECTOR   (SOLST) Two semiconductor detectors of the diffused    A1473001   15 
           P-Si type. 20 mm2 in area.                             A1473001   16 
           Third detector was used as a monitor.                  A1473001   17 
ERR-ANALYS (ERR-SYS,,5.) Systematic error                         A1473001   18 
HISTORY    (19810607C) Compilation Produced by RFNC-VNIIEF Sarov  A1473001   19 
           (19990321U)CNPD: corrected 4-dig. year and lower cases.A1473001   20 
           (20251002A) SD: Corrections in all Subents.            A1473001   21 
ENDBIB              19          0                                 A1473001   22 
NOCOMMON             0          0                                 A1473001   23 
ENDSUBENT           22          0                                 A147300199999 
SUBENT        A1473002   20251002                             A128A1473002    1 
BIB                  4          6                                 A1473002    2 
REACTION   (3-LI-7(P,A)2-HE-4,,DA)                                A1473002    3 
ERR-ANALYS (ERR-S) Statistical error                              A1473002    4 
STATUS     (CURVE,,N.Sarma+,J,NP,44,205,1963) Figure 2            A1473002    5 
HISTORY    (20251002A) SD: SF9=EXP deleted from REACTION code.    A1473002    6 
           STATUS updated. EN-ERR->EN-ERR-DIG; DATA-ERR->ERR-S;   A1473002    7 
           ERR-DIG added.                                         A1473002    8 
ENDBIB               6          0                                 A1473002    9 
COMMON               1          3                                 A1473002   10 
EN-ERR-DIG                                                        A1473002   11 
MEV                                                               A1473002   12 
       0.01                                                       A1473002   13 
ENDCOMMON            3          0                                 A1473002   14 
DATA                 5        412                                 A1473002   15 
ANG        EN         DATA       ERR-S      ERR-DIG               A1473002   16 
ADEG       MEV        MB/SR      MB/SR      MB/SR                 A1473002   17 
        60.       2.85       2.08                  0.02           A1473002   18 
        60.       2.88       2.08       0.12       0.02           A1473002   19 
        60.       2.92       2.27                  0.02           A1473002   20 
        60.       2.93       2.22                  0.02           A1473002   21 
        60.       2.95       2.15                  0.02           A1473002   22 
        60.       2.96       2.19                  0.02           A1473002   23 
        60.       2.99       2.17                  0.02           A1473002   24 
        60.       3.01       2.22                  0.02           A1473002   25 
        60.       3.03       2.22                  0.02           A1473002   26 
        60.       3.06       2.41                  0.02           A1473002   27 
        60.       3.11       2.20       0.09       0.02           A1473002   28 
        60.       3.13       2.13                  0.02           A1473002   29 
        60.       3.16       2.11                  0.02           A1473002   30 
        60.       3.17       2.15                  0.02           A1473002   31 
        60.       3.20       2.01                  0.02           A1473002   32 
        60.       3.22       2.04                  0.02           A1473002   33 
        60.       3.23       1.94                  0.02           A1473002   34 
        60.       3.25       1.97                  0.02           A1473002   35 
        60.       3.27       1.92                  0.02           A1473002   36 
        60.       3.29       2.02                  0.02           A1473002   37 
        60.       3.31       1.92                  0.02           A1473002   38 
        60.       3.33       2.02                  0.02           A1473002   39 
        60.       3.34       1.92                  0.02           A1473002   40 
        60.       3.36       1.90                  0.02           A1473002   41 
        60.       3.38       1.81       0.09       0.02           A1473002   42 
        60.       3.42       1.78                  0.02           A1473002   43 
        60.       3.44       1.74                  0.02           A1473002   44 
        60.       3.46       1.72                  0.02           A1473002   45 
        60.       3.47       1.57                  0.02           A1473002   46 
        60.       3.49       1.48                  0.02           A1473002   47 
        60.       3.52       1.44                  0.02           A1473002   48 
        60.       3.54       1.39                  0.02           A1473002   49 
        60.       3.55       1.36                  0.02           A1473002   50 
        60.       3.57       1.39                  0.02           A1473002   51 
        60.       3.60       1.27                  0.02           A1473002   52 
        60.       3.62       1.32                  0.02           A1473002   53 
        60.       3.64       1.23                  0.02           A1473002   54 
        60.       3.65       1.23                  0.02           A1473002   55 
        60.       3.66       1.13                  0.02           A1473002   56 
        60.       3.69       1.18                  0.02           A1473002   57 
        60.       3.71       1.21                  0.02           A1473002   58 
        60.       3.73       1.04                  0.02           A1473002   59 
        60.       3.74       1.14                  0.02           A1473002   60 
        60.       3.76       0.95                  0.02           A1473002   61 
        60.       3.79       0.93       0.09       0.02           A1473002   62 
        60.       3.82       0.93                  0.02           A1473002   63 
        60.       3.84       0.88                  0.02           A1473002   64 
        60.       3.85       0.76                  0.02           A1473002   65 
        60.       3.88       0.81                  0.02           A1473002   66 
        60.       3.91       0.86                  0.02           A1473002   67 
        60.       3.92       0.72                  0.02           A1473002   68 
        60.       3.95       0.72                  0.02           A1473002   69 
        60.       3.98       0.62                  0.02           A1473002   70 
        60.       3.98       0.58                  0.02           A1473002   71 
        60.       4.01       0.58                  0.02           A1473002   72 
        60.       4.03       0.63                  0.02           A1473002   73 
        60.       4.05       0.56                  0.02           A1473002   74 
        60.       4.06       0.48                  0.02           A1473002   75 
        60.       4.08       0.58                  0.02           A1473002   76 
        60.       4.10       0.49                  0.02           A1473002   77 
        60.       4.12       0.44                  0.02           A1473002   78 
        60.       4.17       0.49                  0.02           A1473002   79 
        60.       4.19       0.49                  0.02           A1473002   80 
        60.       4.21       0.44                  0.02           A1473002   81 
        60.       4.23       0.47                  0.02           A1473002   82 
        60.       4.24       0.40                  0.02           A1473002   83 
        60.       4.26       0.44                  0.02           A1473002   84 
        60.       4.28       0.40                  0.02           A1473002   85 
        60.       4.29       0.37                  0.02           A1473002   86 
        60.       4.32       0.38                  0.02           A1473002   87 
        60.       4.36       0.28                  0.02           A1473002   88 
        60.       4.38       0.28                  0.02           A1473002   89 
        60.       4.40       0.33                  0.02           A1473002   90 
        60.       4.41       0.26                  0.02           A1473002   91 
        60.       4.43       0.31                  0.02           A1473002   92 
        60.       4.45       0.28                  0.02           A1473002   93 
        60.       4.47       0.26                  0.02           A1473002   94 
        60.       4.49       0.29                  0.02           A1473002   95 
        60.       4.51       0.19                  0.02           A1473002   96 
        60.       4.51       0.24                  0.02           A1473002   97 
        60.       4.55       0.19                  0.02           A1473002   98 
        60.       4.56       0.17                  0.02           A1473002   99 
        60.       4.57       0.19                  0.02           A1473002  100 
        60.       4.59       0.24                  0.02           A1473002  101 
        60.       4.61       0.15                  0.02           A1473002  102 
        60.       4.63       0.17                  0.02           A1473002  103 
        60.       4.65       0.17                  0.02           A1473002  104 
        60.       4.67       0.15                  0.02           A1473002  105 
        60.       4.70       0.17                  0.02           A1473002  106 
        60.       4.72       0.17                  0.02           A1473002  107 
        60.       4.75       0.17                  0.02           A1473002  108 
        60.       4.77       0.18                  0.02           A1473002  109 
        60.       4.79       0.15                  0.02           A1473002  110 
        60.       4.80       0.15                  0.02           A1473002  111 
        60.       4.82       0.11                  0.02           A1473002  112 
        60.       4.85       0.15                  0.02           A1473002  113 
        60.       4.86       0.15                  0.02           A1473002  114 
        60.       4.88       0.15                  0.02           A1473002  115 
        60.       4.91       0.11                  0.02           A1473002  116 
        60.       4.92       0.18                  0.02           A1473002  117 
        60.       4.95       0.16                  0.02           A1473002  118 
        60.       4.96       0.20                  0.02           A1473002  119 
        60.       4.99       0.20                  0.02           A1473002  120 
        60.       5.00       0.23                  0.02           A1473002  121 
        60.       5.02       0.23                  0.02           A1473002  122 
        60.       5.04       0.23                  0.02           A1473002  123 
        60.       5.06       0.21                  0.02           A1473002  124 
        60.       5.08       0.26                  0.02           A1473002  125 
        60.       5.09       0.30                  0.02           A1473002  126 
        60.       5.11       0.33                  0.02           A1473002  127 
        60.       5.14       0.30                  0.02           A1473002  128 
        60.       5.15       0.40                  0.02           A1473002  129 
        60.       5.17       0.45                  0.02           A1473002  130 
        60.       5.19       0.42                  0.02           A1473002  131 
        60.       5.21       0.40                  0.02           A1473002  132 
        60.       5.23       0.49                  0.02           A1473002  133 
        60.       5.26       0.49                  0.02           A1473002  134 
        60.       5.27       0.59                  0.02           A1473002  135 
        60.       5.28       0.64                  0.02           A1473002  136 
        60.       5.30       0.71                  0.02           A1473002  137 
        60.       5.33       0.66                  0.02           A1473002  138 
        60.       5.34       0.73                  0.02           A1473002  139 
        60.       5.36       0.76       0.09       0.02           A1473002  140 
        60.       5.41       0.83                  0.02           A1473002  141 
        60.       5.47       0.93                  0.02           A1473002  142 
        80.       2.86       1.84                  0.02           A1473002  143 
        80.       2.88       1.98                  0.02           A1473002  144 
        80.       2.89       1.79                  0.02           A1473002  145 
        80.       2.90       1.86                  0.02           A1473002  146 
        80.       2.92       2.00                  0.02           A1473002  147 
        80.       2.93       2.05                  0.02           A1473002  148 
        80.       2.96       2.14                  0.02           A1473002  149 
        80.       2.98       2.19                  0.02           A1473002  150 
        80.       3.00       2.03                  0.02           A1473002  151 
        80.       3.02       2.19       0.09       0.02           A1473002  152 
        80.       3.04       2.44                  0.02           A1473002  153 
        80.       3.06       2.56                  0.02           A1473002  154 
        80.       3.07       2.35                  0.02           A1473002  155 
        80.       3.09       2.42       0.12       0.02           A1473002  156 
        80.       3.12       2.44                  0.02           A1473002  157 
        80.       3.13       2.28                  0.02           A1473002  158 
        80.       3.15       2.21                  0.02           A1473002  159 
        80.       3.16       2.28                  0.02           A1473002  160 
        80.       3.18       2.12                  0.02           A1473002  161 
        80.       3.23       2.01                  0.02           A1473002  162 
        80.       3.26       2.01                  0.02           A1473002  163 
        80.       3.29       1.85                  0.02           A1473002  164 
        80.       3.32       1.94       0.14       0.02           A1473002  165 
        80.       3.34       2.04                  0.02           A1473002  166 
        80.       3.36       1.88                  0.02           A1473002  167 
        80.       3.37       1.97                  0.02           A1473002  168 
        80.       3.39       1.95                  0.02           A1473002  169 
        80.       3.40       1.95                  0.02           A1473002  170 
        80.       3.42       1.81                  0.02           A1473002  171 
        80.       3.44       1.90                  0.02           A1473002  172 
        80.       3.46       1.70                  0.02           A1473002  173 
        80.       3.48       1.67                  0.02           A1473002  174 
        80.       3.50       1.76                  0.02           A1473002  175 
        80.       3.52       1.60                  0.02           A1473002  176 
        80.       3.54       1.54       0.12       0.02           A1473002  177 
        80.       3.57       1.56                  0.02           A1473002  178 
        80.       3.60       1.47                  0.02           A1473002  179 
        80.       3.60       1.35                  0.02           A1473002  180 
        80.       3.63       1.49                  0.02           A1473002  181 
        80.       3.64       1.43                  0.02           A1473002  182 
        80.       3.66       1.33                  0.02           A1473002  183 
        80.       3.69       1.38       0.11       0.02           A1473002  184 
        80.       3.71       1.29                  0.02           A1473002  185 
        80.       3.71       1.18                  0.02           A1473002  186 
        80.       3.74       1.24                  0.02           A1473002  187 
        80.       3.76       0.95                  0.02           A1473002  188 
        80.       3.77       1.02                  0.02           A1473002  189 
        80.       3.79       0.95                  0.02           A1473002  190 
        80.       3.82       0.88                  0.02           A1473002  191 
        80.       3.85       0.90       0.07       0.02           A1473002  192 
        80.       3.87       0.83                  0.02           A1473002  193 
        80.       3.89       0.79                  0.02           A1473002  194 
        80.       3.91       0.72                  0.02           A1473002  195 
        80.       3.93       0.77                  0.02           A1473002  196 
        80.       3.95       0.79                  0.02           A1473002  197 
        80.       3.96       0.65                  0.02           A1473002  198 
        80.       3.98       0.59                  0.02           A1473002  199 
        80.       4.00       0.54                  0.02           A1473002  200 
        80.       4.01       0.66                  0.02           A1473002  201 
        80.       4.03       0.56                  0.02           A1473002  202 
        80.       4.06       0.56                  0.02           A1473002  203 
        80.       4.08       0.59                  0.02           A1473002  204 
        80.       4.09       0.54                  0.02           A1473002  205 
        80.       4.11       0.64                  0.02           A1473002  206 
        80.       4.13       0.57                  0.02           A1473002  207 
        80.       4.15       0.57                  0.02           A1473002  208 
        80.       4.17       0.59                  0.02           A1473002  209 
        80.       4.19       0.57                  0.02           A1473002  210 
        80.       4.21       0.55                  0.02           A1473002  211 
        80.       4.23       0.50                  0.02           A1473002  212 
        80.       4.25       0.46                  0.02           A1473002  213 
        80.       4.27       0.50                  0.02           A1473002  214 
        80.       4.28       0.41                  0.02           A1473002  215 
        80.       4.30       0.46                  0.02           A1473002  216 
        80.       4.32       0.34                  0.02           A1473002  217 
        80.       4.33       0.41                  0.02           A1473002  218 
        80.       4.36       0.39                  0.02           A1473002  219 
        80.       4.37       0.32                  0.02           A1473002  220 
        80.       4.40       0.37                  0.02           A1473002  221 
        80.       4.41       0.30                  0.02           A1473002  222 
        80.       4.44       0.30                  0.02           A1473002  223 
        80.       4.44       0.21                  0.02           A1473002  224 
        80.       4.45       0.25                  0.02           A1473002  225 
        80.       4.48       0.21                  0.02           A1473002  226 
        80.       4.50       0.19                  0.02           A1473002  227 
        80.       4.52       0.23                  0.02           A1473002  228 
        80.       4.53       0.19                  0.02           A1473002  229 
        80.       4.56       0.19                  0.02           A1473002  230 
        80.       4.58       0.17                  0.02           A1473002  231 
        80.       4.60       0.17                  0.02           A1473002  232 
        80.       4.65       0.19                  0.02           A1473002  233 
        80.       4.67       0.10                  0.02           A1473002  234 
        80.       4.70       0.10                  0.02           A1473002  235 
        80.       4.71       0.17                  0.02           A1473002  236 
        80.       4.73       0.10                  0.02           A1473002  237 
        80.       4.75       0.10                  0.02           A1473002  238 
        80.       4.76       0.13                  0.02           A1473002  239 
        80.       4.78       0.13                  0.02           A1473002  240 
        80.       4.80       0.13                  0.02           A1473002  241 
        80.       4.82       0.10                  0.02           A1473002  242 
        80.       4.85       0.10                  0.02           A1473002  243 
        80.       4.87       0.08                  0.02           A1473002  244 
        80.       4.89       0.11                  0.02           A1473002  245 
        80.       4.91       0.11                  0.02           A1473002  246 
        80.       4.94       0.11                  0.02           A1473002  247 
        80.       4.95       0.15                  0.02           A1473002  248 
        80.       4.96       0.15                  0.02           A1473002  249 
        80.       4.96       0.20                  0.02           A1473002  250 
        80.       4.99       0.13                  0.02           A1473002  251 
        80.       5.02       0.15                  0.02           A1473002  252 
        80.       5.03       0.25                  0.02           A1473002  253 
        80.       5.05       0.23                  0.02           A1473002  254 
        80.       5.07       0.27                  0.02           A1473002  255 
        80.       5.08       0.27                  0.02           A1473002  256 
        80.       5.09       0.29                  0.02           A1473002  257 
        80.       5.12       0.39                  0.02           A1473002  258 
        80.       5.14       0.46                  0.02           A1473002  259 
        80.       5.14       0.36                  0.02           A1473002  260 
        80.       5.17       0.43                  0.02           A1473002  261 
        80.       5.19       0.50                  0.02           A1473002  262 
        80.       5.21       0.67                  0.02           A1473002  263 
        80.       5.23       0.67                  0.02           A1473002  264 
        80.       5.24       0.73                  0.02           A1473002  265 
        80.       5.27       0.71                  0.02           A1473002  266 
        80.       5.28       0.78                  0.02           A1473002  267 
        80.       5.30       0.87                  0.02           A1473002  268 
        80.       5.33       0.83                  0.02           A1473002  269 
        80.       5.34       0.99                  0.02           A1473002  270 
        80.       5.36       1.13                  0.02           A1473002  271 
        80.       5.37       1.22                  0.02           A1473002  272 
        80.       5.40       1.20                  0.02           A1473002  273 
       100.       2.86       2.56       0.09       0.02           A1473002  274 
       100.       2.88       2.63                  0.02           A1473002  275 
       100.       2.89       2.54                  0.02           A1473002  276 
       100.       2.92       2.63       0.14       0.02           A1473002  277 
       100.       2.94       2.68                  0.02           A1473002  278 
       100.       2.96       2.77                  0.02           A1473002  279 
       100.       2.98       2.82                  0.02           A1473002  280 
       100.       3.00       2.82                  0.02           A1473002  281 
       100.       3.01       2.73                  0.02           A1473002  282 
       100.       3.03       2.71                  0.02           A1473002  283 
       100.       3.06       2.66                  0.02           A1473002  284 
       100.       3.09       2.61                  0.02           A1473002  285 
       100.       3.11       2.71                  0.02           A1473002  286 
       100.       3.14       2.75       0.14       0.02           A1473002  287 
       100.       3.17       2.66                  0.02           A1473002  288 
       100.       3.18       2.59                  0.02           A1473002  289 
       100.       3.20       2.54                  0.02           A1473002  290 
       100.       3.21       2.26                  0.02           A1473002  291 
       100.       3.24       2.48                  0.02           A1473002  292 
       100.       3.25       2.38                  0.02           A1473002  293 
       100.       3.28       2.45                  0.02           A1473002  294 
       100.       3.29       2.29                  0.02           A1473002  295 
       100.       3.31       2.24       0.12       0.02           A1473002  296 
       100.       3.33       2.31                  0.02           A1473002  297 
       100.       3.34       2.20                  0.02           A1473002  298 
       100.       3.37       2.25                  0.02           A1473002  299 
       100.       3.39       1.97                  0.02           A1473002  300 
       100.       3.40       2.13                  0.02           A1473002  301 
       100.       3.41       1.99                  0.02           A1473002  302 
       100.       3.43       2.06                  0.02           A1473002  303 
       100.       3.46       2.01                  0.02           A1473002  304 
       100.       3.47       1.92                  0.02           A1473002  305 
       100.       3.49       1.83                  0.02           A1473002  306 
       100.       3.51       1.83       0.12       0.02           A1473002  307 
       100.       3.53       1.71                  0.02           A1473002  308 
       100.       3.56       1.76                  0.02           A1473002  309 
       100.       3.56       1.64                  0.02           A1473002  310 
       100.       3.56       1.62                  0.02           A1473002  311 
       100.       3.58       1.67                  0.02           A1473002  312 
       100.       3.60       1.62                  0.02           A1473002  313 
       100.       3.62       1.46                  0.02           A1473002  314 
       100.       3.63       1.39                  0.02           A1473002  315 
       100.       3.65       1.48                  0.02           A1473002  316 
       100.       3.69       1.41                  0.02           A1473002  317 
       100.       3.71       1.15                  0.02           A1473002  318 
       100.       3.73       1.29                  0.02           A1473002  319 
       100.       3.75       1.36                  0.02           A1473002  320 
       100.       3.77       1.18                  0.02           A1473002  321 
       100.       3.79       1.13                  0.02           A1473002  322 
       100.       3.81       1.13                  0.02           A1473002  323 
       100.       3.83       1.16                  0.02           A1473002  324 
       100.       3.85       1.02                  0.02           A1473002  325 
       100.       3.87       0.97                  0.02           A1473002  326 
       100.       3.90       0.92                  0.02           A1473002  327 
       100.       3.92       0.88       0.12       0.02           A1473002  328 
       100.       3.94       0.90                  0.02           A1473002  329 
       100.       3.96       0.83                  0.02           A1473002  330 
       100.       3.98       0.79                  0.02           A1473002  331 
       100.       4.00       0.72                  0.02           A1473002  332 
       100.       4.01       0.65                  0.02           A1473002  333 
       100.       4.04       0.76                  0.02           A1473002  334 
       100.       4.04       0.55                  0.02           A1473002  335 
       100.       4.08       0.65                  0.02           A1473002  336 
       100.       4.09       0.58                  0.02           A1473002  337 
       100.       4.11       0.56                  0.02           A1473002  338 
       100.       4.14       0.60                  0.02           A1473002  339 
       100.       4.14       0.46                  0.02           A1473002  340 
       100.       4.17       0.56                  0.02           A1473002  341 
       100.       4.21       0.25                  0.02           A1473002  342 
       100.       4.24       0.40                  0.02           A1473002  343 
       100.       4.25       0.42                  0.02           A1473002  344 
       100.       4.27       0.35                  0.02           A1473002  345 
       100.       4.29       0.42                  0.02           A1473002  346 
       100.       4.30       0.37                  0.02           A1473002  347 
       100.       4.32       0.35                  0.02           A1473002  348 
       100.       4.34       0.28                  0.02           A1473002  349 
       100.       4.36       0.40                  0.02           A1473002  350 
       100.       4.37       0.30                  0.02           A1473002  351 
       100.       4.38       0.23                  0.02           A1473002  352 
       100.       4.41       0.28                  0.02           A1473002  353 
       100.       4.43       0.17                  0.02           A1473002  354 
       100.       4.45       0.28                  0.02           A1473002  355 
       100.       4.46       0.12                  0.02           A1473002  356 
       100.       4.48       0.24                  0.02           A1473002  357 
       100.       4.50       0.19                  0.02           A1473002  358 
       100.       4.52       0.12                  0.02           A1473002  359 
       100.       4.54       0.19                  0.02           A1473002  360 
       100.       4.55       0.17                  0.02           A1473002  361 
       100.       4.57       0.19                  0.02           A1473002  362 
       100.       4.59       0.12                  0.02           A1473002  363 
       100.       4.61       0.10                  0.02           A1473002  364 
       100.       4.63       0.12                  0.02           A1473002  365 
       100.       4.64       0.13                  0.02           A1473002  366 
       100.       4.65       0.08                  0.02           A1473002  367 
       100.       4.67       0.08                  0.02           A1473002  368 
       100.       4.68       0.13                  0.02           A1473002  369 
       100.       4.71       0.10                  0.02           A1473002  370 
       100.       4.72       0.06                  0.02           A1473002  371 
       100.       4.73       0.10                  0.02           A1473002  372 
       100.       4.75       0.06                  0.02           A1473002  373 
       100.       4.77       0.10                  0.02           A1473002  374 
       100.       4.80       0.08                  0.02           A1473002  375 
       100.       4.81       0.04                  0.02           A1473002  376 
       100.       4.83       0.08                  0.02           A1473002  377 
       100.       4.86       0.11                  0.02           A1473002  378 
       100.       4.87       0.13                  0.02           A1473002  379 
       100.       4.89       0.06                  0.02           A1473002  380 
       100.       4.91       0.06                  0.02           A1473002  381 
       100.       4.93       0.11                  0.02           A1473002  382 
       100.       4.95       0.11                  0.02           A1473002  383 
       100.       4.96       0.06                  0.02           A1473002  384 
       100.       4.98       0.11                  0.02           A1473002  385 
       100.       5.01       0.14                  0.02           A1473002  386 
       100.       5.02       0.20                  0.02           A1473002  387 
       100.       5.04       0.18                  0.02           A1473002  388 
       100.       5.06       0.14                  0.02           A1473002  389 
       100.       5.08       0.21                  0.02           A1473002  390 
       100.       5.10       0.26                  0.02           A1473002  391 
       100.       5.12       0.26                  0.02           A1473002  392 
       100.       5.13       0.28                  0.02           A1473002  393 
       100.       5.14       0.37                  0.02           A1473002  394 
       100.       5.17       0.42                  0.02           A1473002  395 
       100.       5.19       0.45                  0.02           A1473002  396 
       100.       5.20       0.49                  0.02           A1473002  397 
       100.       5.22       0.42                  0.02           A1473002  398 
       100.       5.25       0.49                  0.02           A1473002  399 
       100.       5.26       0.61                  0.02           A1473002  400 
       100.       5.28       0.66                  0.02           A1473002  401 
       100.       5.29       0.73                  0.02           A1473002  402 
       100.       5.31       0.80                  0.02           A1473002  403 
       100.       5.33       0.75                  0.02           A1473002  404 
       100.       5.36       0.85       0.09       0.02           A1473002  405 
       100.       5.37       0.92                  0.02           A1473002  406 
       100.       5.40       0.94                  0.02           A1473002  407 
       150.       4.05      0.261      0.021      0.005           A1473002  408 
       150.       4.11      0.246                 0.005           A1473002  409 
       150.       4.16      0.241      0.021      0.005           A1473002  410 
       150.       4.22      0.236                 0.005           A1473002  411 
       150.       4.27      0.241                 0.005           A1473002  412 
       150.       4.35      0.226                 0.005           A1473002  413 
       150.       4.39      0.147                 0.005           A1473002  414 
       150.       4.45      0.195                 0.005           A1473002  415 
       150.       4.57      0.185                 0.005           A1473002  416 
       150.       4.62      0.165                 0.005           A1473002  417 
       150.       4.68      0.181                 0.005           A1473002  418 
       150.       4.72      0.202      0.021      0.005           A1473002  419 
       150.       4.78      0.203                 0.005           A1473002  420 
       150.       4.83      0.187                 0.005           A1473002  421 
       150.       4.88      0.177                 0.005           A1473002  422 
       150.       4.96      0.172                 0.005           A1473002  423 
       150.       5.00      0.188                 0.005           A1473002  424 
       150.       5.06      0.157                 0.005           A1473002  425 
       150.       5.13      0.184                 0.005           A1473002  426 
       150.       5.17      0.131                 0.005           A1473002  427 
       150.       5.24      0.158                 0.005           A1473002  428 
       150.       5.29      0.148                 0.005           A1473002  429 
ENDDATA            414          0                                 A1473002  430 
ENDSUBENT          429          0                                 A147300299999 
SUBENT        A1473003   20251002                             A128A1473003    1 
BIB                  4          6                                 A1473003    2 
REACTION   (3-LI-7(P,A)2-HE-4,,DA)                                A1473003    3 
ERR-ANALYS (ERR-S) Statistical error                              A1473003    4 
STATUS     (CURVE,,N.Sarma+,J,NP,44,205,1963) Figure 3            A1473003    5 
HISTORY    (20251002A) SD: SF9=EXP deleted from REACTION code.    A1473003    6 
           STATUS updated. ANG-ERR->ANG-ERR-D; DATA-ERR->ERR-S;   A1473003    7 
           ERR-DIG added.                                         A1473003    8 
ENDBIB               6          0                                 A1473003    9 
COMMON               1          3                                 A1473003   10 
ANG-ERR-D                                                         A1473003   11 
ADEG                                                              A1473003   12 
  1.0                                                             A1473003   13 
ENDCOMMON            3          0                                 A1473003   14 
DATA                 5         97                                 A1473003   15 
EN         ANG-CM     DATA-CM    ERR-S      ERR-DIG               A1473003   16 
MEV        ADEG       MB/SR      MB/SR      MB/SR                 A1473003   17 
         3.      22.76      1.406      0.028      0.009           A1473003   18 
         3.      33.86      1.563      0.056      0.009           A1473003   19 
         3.      44.26      1.645      0.009      0.009           A1473003   20 
         3.      56.34      1.810      0.057      0.009           A1473003   21 
         3.      67.34      1.939      0.037      0.009           A1473003   22 
         3.      77.84      2.039      0.047      0.009           A1473003   23 
         3.      88.16      2.046      0.056      0.009           A1473003   24 
         3.      103.7      1.845      0.047      0.009           A1473003   25 
         3.      108.2      1.787      0.047      0.009           A1473003   26 
         3.       119.      1.813      0.047      0.009           A1473003   27 
         3.      127.6      1.670      0.037      0.009           A1473003   28 
         3.      135.9      1.592      0.056      0.009           A1473003   29 
         3.       145.      1.440      0.037      0.009           A1473003   30 
         3.      153.2      1.344      0.037      0.009           A1473003   31 
         3.      162.5      1.332      0.037      0.009           A1473003   32 
         3.      167.1      1.284      0.028      0.009           A1473003   33 
        3.5      26.96      0.584      0.037      0.009           A1473003   34 
        3.5      38.05      0.748      0.037      0.009           A1473003   35 
        3.5      50.07      0.912      0.037      0.009           A1473003   36 
        3.5      60.75      1.105      0.037      0.009           A1473003   37 
        3.5      71.87      1.288      0.028      0.009           A1473003   38 
        3.5      81.81      1.341      0.037      0.009           A1473003   39 
        3.5      92.13      1.357      0.028      0.009           A1473003   40 
        3.5      101.3      1.280      0.037      0.009           A1473003   41 
        3.5      111.4      1.175      0.037      0.009           A1473003   42 
        3.5      121.5      1.071      0.037      0.009           A1473003   43 
        3.5      130.5      0.901      0.037      0.009           A1473003   44 
        3.5      140.1      0.787      0.028      0.009           A1473003   45 
        3.5      148.1      0.571      0.037      0.009           A1473003   46 
        3.5      156.8      0.475                 0.009           A1473003   47 
        3.5      165.1      0.445                 0.009           A1473003   48 
         4.      27.36      0.220                 0.005           A1473003   49 
         4.      38.87      0.290                 0.005           A1473003   50 
         4.      49.34      0.336                 0.005           A1473003   51 
         4.       58.9      0.387                 0.005           A1473003   52 
         4.      70.32      0.438                 0.005           A1473003   53 
         4.      82.59      0.456      0.019      0.005           A1473003   54 
         4.      87.32      0.465      0.024      0.005           A1473003   55 
         4.      97.55      0.454      0.014      0.005           A1473003   56 
         4.      107.7      0.424      0.014      0.005           A1473003   57 
         4.      112.7      0.380      0.019      0.005           A1473003   58 
         4.      130.7      0.326      0.019      0.005           A1473003   59 
         4.      139.4      0.267      0.014      0.005           A1473003   60 
         4.      148.1      0.233                 0.005           A1473003   61 
         4.      157.4      0.227                 0.005           A1473003   62 
         4.      165.7      0.178                 0.005           A1473003   63 
        4.5      40.07     0.1995     0.0038     0.0009           A1473003   64 
        4.5      52.48     0.1645     0.0047     0.0009           A1473003   65 
        4.5      63.26     0.1416     0.0047     0.0009           A1473003   66 
        4.5      73.25     0.1263     0.0047     0.0009           A1473003   67 
        4.5      94.21     0.0976     0.0056     0.0009           A1473003   68 
        4.5      103.7     0.1067     0.0047     0.0009           A1473003   69 
        4.5      114.4     0.1281     0.0028     0.0009           A1473003   70 
        4.5       123.     0.1325     0.0038     0.0009           A1473003   71 
        4.5      132.9     0.1633     0.0037     0.0009           A1473003   72 
        4.5      141.9     0.1931     0.0047     0.0009           A1473003   73 
        4.5      149.8     0.2117     0.0047     0.0009           A1473003   74 
        4.5      159.7     0.1945     0.0037     0.0009           A1473003   75 
        4.8      19.68     0.0860                0.0014           A1473003   76 
        4.8      32.91     0.0817                0.0014           A1473003   77 
        4.8      51.19     0.0572                0.0014           A1473003   78 
        4.8      66.85     0.0354                0.0014           A1473003   79 
        4.8      75.99     0.0231                0.0014           A1473003   80 
        4.8      87.77     0.0095                0.0014           A1473003   81 
        4.8      106.6     0.0254                0.0014           A1473003   82 
        4.8      114.7     0.0388                0.0014           A1473003   83 
        4.8      125.7     0.0630                0.0014           A1473003   84 
        4.8      137.9     0.0830                0.0014           A1473003   85 
        4.8      152.7     0.0977                0.0014           A1473003   86 
        4.8      159.1     0.0841                0.0014           A1473003   87 
        4.8      170.9     0.1717     0.0081     0.0014           A1473003   88 
         5.      21.47     0.0843                0.0009           A1473003   89 
         5.      33.68     0.0868                0.0009           A1473003   90 
         5.      44.84     0.1052     0.0037     0.0009           A1473003   91 
         5.      57.03     0.1067     0.0038     0.0009           A1473003   92 
         5.      67.94     0.1139     0.0037     0.0009           A1473003   93 
         5.      78.96     0.1276     0.0028     0.0009           A1473003   94 
         5.      88.97     0.1358     0.0056     0.0009           A1473003   95 
         5.      99.13     0.1299     0.0037     0.0009           A1473003   96 
         5.      110.3     0.1053     0.0038     0.0009           A1473003   97 
         5.      119.3     0.1079     0.0028     0.0009           A1473003   98 
         5.       129.     0.1021     0.0037     0.0009           A1473003   99 
         5.      147.3     0.1053     0.0028     0.0009           A1473003  100 
         5.      155.2     0.0799                0.0009           A1473003  101 
         5.      165.3     0.0741                0.0009           A1473003  102 
        5.5      35.08      0.289                 0.009           A1473003  103 
        5.5      47.49      0.416                 0.009           A1473003  104 
        5.5      58.04      0.543                 0.009           A1473003  105 
        5.5      69.54      0.679                 0.009           A1473003  106 
        5.5      80.03      0.779                 0.009           A1473003  107 
        5.5      89.53      0.851                 0.009           A1473003  108 
        5.5      108.9      0.697                 0.009           A1473003  109 
        5.5      119.9      0.620                 0.009           A1473003  110 
        5.5       130.      0.506                 0.009           A1473003  111 
        5.5      139.1      0.401                 0.009           A1473003  112 
        5.5      148.3      0.306                 0.009           A1473003  113 
        5.5      155.7      0.239                 0.009           A1473003  114 
ENDDATA             99          0                                 A1473003  115 
ENDSUBENT          114          0                                 A147300399999 
SUBENT        A1473004   20251002                             A128A1473004    1 
BIB                  4         10                                 A1473004    2 
REACTION   (3-LI-7(P,A)2-HE-4,,SIG)                               A1473004    3 
ANALYSIS   (INTAD) The total cross section for the reaction,      A1473004    4 
           calculated from the excitation function at 60. degr.   A1473004    5 
           and the angular distributions.                         A1473004    6 
STATUS     (CURVE,,N.Sarma+,J,NP,44,205,1963) Figure 4            A1473004    7 
           (DEP,A1473002) excitation function at 60. degr.        A1473004    8 
           (DEP,A1473003) Angl. distributions                     A1473004    9 
HISTORY    (20251002A) SD: SF9=CALC deleted from REACTION code.   A1473004   10 
           STATUS updated. EN-ERR->EN-ERR-DIG; DATA-ERR->ERR-DIG. A1473004   11 
           COMMENT -> ANALYSIS.                                   A1473004   12 
ENDBIB              10          0                                 A1473004   13 
COMMON               2          3                                 A1473004   14 
EN-ERR-DIG ERR-DIG                                                A1473004   15 
MEV        MB                                                     A1473004   16 
   0.01        0.1                                                A1473004   17 
ENDCOMMON            3          0                                 A1473004   18 
DATA                 2         50                                 A1473004   19 
EN         DATA                                                   A1473004   20 
MEV        MB                                                     A1473004   21 
       3.00       20.5                                            A1473004   22 
       3.04       19.9                                            A1473004   23 
       3.09       19.2                                            A1473004   24 
       3.13       18.6                                            A1473004   25 
       3.18       18.0                                            A1473004   26 
       3.22       17.3                                            A1473004   27 
       3.28       16.4                                            A1473004   28 
       3.33       15.6                                            A1473004   29 
       3.38       14.8                                            A1473004   30 
       3.41       13.9                                            A1473004   31 
       3.47       13.1                                            A1473004   32 
       3.51       12.2                                            A1473004   33 
       3.56       11.3                                            A1473004   34 
       3.59       10.7                                            A1473004   35 
       3.64        9.9                                            A1473004   36 
       3.67        9.2                                            A1473004   37 
       3.72        8.4                                            A1473004   38 
       3.77        7.6                                            A1473004   39 
       3.80        7.0                                            A1473004   40 
       3.85        6.3                                            A1473004   41 
       3.89        5.6                                            A1473004   42 
       3.96        4.9                                            A1473004   43 
       4.00        4.4                                            A1473004   44 
       4.04        3.9                                            A1473004   45 
       4.11        3.3                                            A1473004   46 
       4.17        2.9                                            A1473004   47 
       4.23        2.5                                            A1473004   48 
       4.30        1.9                                            A1473004   49 
       4.40        1.5                                            A1473004   50 
       4.50        1.1                                            A1473004   51 
       4.59        0.8                                            A1473004   52 
       4.67        0.5                                            A1473004   53 
       4.75        0.3                                            A1473004   54 
       4.81        0.2                                            A1473004   55 
       4.87        0.4                                            A1473004   56 
       4.92        0.6                                            A1473004   57 
       4.98        0.9                                            A1473004   58 
       5.01        1.4                                            A1473004   59 
       5.07        1.8                                            A1473004   60 
       5.11        2.2                                            A1473004   61 
       5.14        2.7                                            A1473004   62 
       5.21        3.3                                            A1473004   63 
       5.24        3.8                                            A1473004   64 
       5.30        4.2                                            A1473004   65 
       5.33        4.6                                            A1473004   66 
       5.38        5.1                                            A1473004   67 
       5.41        5.5                                            A1473004   68 
       5.45        5.9                                            A1473004   69 
       5.47        6.2                                            A1473004   70 
       5.49        6.6                                            A1473004   71 
ENDDATA             52          0                                 A1473004   72 
ENDSUBENT           71          0                                 A147300499999 
SUBENT        A1473005   20251002                             A128A1473005    1 
BIB                  4          5                                 A1473005    2 
REACTION   (3-LI-7(P,A)2-HE-4,,DA,,LEG/RS)                        A1473005    3 
ERR-ANALYS (ERR-S) Statistical error                              A1473005    4 
STATUS     (CURVE,,N.Sarma+,J,NP,44,205,1963) Figure 5            A1473005    5 
HISTORY    (20251002A) SD: SF9=EXP deleted from REACTION code.    A1473005    6 
           STATUS updated. EN-ERR->EN-ERR-DIG; DATA-ERR->ERR-S.   A1473005    7 
ENDBIB               5          0                                 A1473005    8 
COMMON               1          3                                 A1473005    9 
EN-ERR-DIG                                                        A1473005   10 
MEV                                                               A1473005   11 
 0.007                                                            A1473005   12 
ENDCOMMON            3          0                                 A1473005   13 
DATA                 4         28                                 A1473005   14 
NUMBER     EN         DATA-CM    ERR-S                            A1473005   15 
NO-DIM     MEV        NO-DIM     NO-DIM                           A1473005   16 
         2.      3.006     -0.285      0.035                      A1473005   17 
         2.      3.493     -0.616      0.090                      A1473005   18 
         2.      3.993     -0.530      0.028                      A1473005   19 
         2.      4.479      0.537      0.076                      A1473005   20 
         2.      4.858      1.242      0.097                      A1473005   21 
         2.      4.998     -0.316      0.042                      A1473005   22 
         2.      5.493     -0.849      0.028                      A1473005   23 
         4.      2.993     -0.007      0.021                      A1473005   24 
         4.      3.478      0.100      0.125                      A1473005   25 
         4.      3.988      0.026      0.035                      A1473005   26 
         4.      4.488     -0.082      0.083                      A1473005   27 
         4.      4.871     -0.442      0.146                      A1473005   28 
         4.      4.987      0.046      0.049                      A1473005   29 
         4.      5.486      0.160      0.042                      A1473005   30 
         6.      2.990     -0.028      0.035                      A1473005   31 
         6.      3.491     -0.060      0.118                      A1473005   32 
         6.      4.010     -0.015      0.028                      A1473005   33 
         6.      4.507      0.015      0.097                      A1473005   34 
         6.      4.848     -0.198      0.195                      A1473005   35 
         6.      4.988     -0.184      0.056                      A1473005   36 
         6.      5.451     -0.028      0.084                      A1473005   37 
         8.      2.993      0.021      0.028                      A1473005   38 
         8.      3.517      0.038      0.111                      A1473005   39 
         8.      3.962     -0.022      0.035                      A1473005   40 
         8.      4.474      0.078      0.090                      A1473005   41 
         8.      4.860     -0.024      0.028                      A1473005   42 
         8.      4.995     -0.876      0.035                      A1473005   43 
         8.      5.497      0.016      0.035                      A1473005   44 
ENDDATA             30          0                                 A1473005   45 
ENDSUBENT           44          0                                 A147300599999 
ENDENTRY             5          0                                 A147399999999 
